#           eng            dos          occup          e_sum
      -10.00000        0.00000        0.00000        0.00000
       -9.96000        0.00000        0.00000        0.00000
       -9.92000        0.00000        0.00000        0.00000
       -9.88000        0.00000        0.00000        0.00000
       -9.84000        0.00000        0.00000        0.00000
       -9.80000        0.00000        0.00000        0.00000
       -9.76000        0.00000        0.00000        0.00000
       -9.72000        0.00000        0.00000        0.00000
       -9.68000        0.00000        0.00000        0.00000
       -9.64000        0.00000        0.00000        0.00000
       -9.60000        0.00000        0.00000        0.00000
       -9.56000        0.00000        0.00000        0.00000
       -9.52000        0.00000        0.00000        0.00000
       -9.48000        0.00000        0.00000        0.00000
       -9.44000        0.00000        0.00000        0.00000
       -9.40000        0.00000        0.00000        0.00000
       -9.36000        0.00000        0.00000        0.00000
       -9.32000        0.00000        0.00000        0.00000
       -9.28000        0.00000        0.00000        0.00000
       -9.24000        0.00000        0.00000        0.00000
       -9.20000        0.00000        0.00000        0.00000
       -9.16000        0.00000        0.00000        0.00000
       -9.12000        0.00000        0.00000        0.00000
       -9.08000        0.00000        0.00000        0.00000
       -9.04000        0.00000        0.00000        0.00000
       -9.00000        0.00000        0.00000        0.00000
       -8.96000        0.00000        0.00000        0.00000
       -8.92000        0.00000        0.00000        0.00000
       -8.88000        0.00000        0.00000        0.00000
       -8.84000        0.00000        0.00000        0.00000
       -8.80000        0.00000        0.00000        0.00000
       -8.76000        0.00000        0.00000        0.00000
       -8.72000        0.00000        0.00000        0.00000
       -8.68000        0.00000        0.00000        0.00000
       -8.64000        0.00000        0.00000        0.00000
       -8.60000        0.00000        0.00000        0.00000
       -8.56000        0.00000        0.00000        0.00000
       -8.52000        0.00000        0.00000        0.00000
       -8.48000        0.00000        0.00000        0.00000
       -8.44000        0.00002        0.00000        0.00000
       -8.40000        0.00011        0.00000        0.00000
       -8.36000        0.00039        0.00001        0.00001
       -8.32000        0.00121        0.00004        0.00005
       -8.28000        0.00316        0.00012        0.00015
       -8.24000        0.00694        0.00032        0.00038
       -8.20000        0.01284        0.00071        0.00085
       -8.16000        0.02001        0.00136        0.00163
       -8.12000        0.02631        0.00230        0.00275
       -8.08000        0.02938        0.00342        0.00411
       -8.04000        0.02848        0.00459        0.00552
       -8.00000        0.02542        0.00567        0.00685
       -7.96000        0.02363        0.00664        0.00809
       -7.92000        0.02569        0.00762        0.00941
       -7.88000        0.03134        0.00875        0.01102
       -7.84000        0.03759        0.01013        0.01304
       -7.80000        0.04121        0.01172        0.01539
       -7.76000        0.04194        0.01339        0.01789
       -7.72000        0.04374        0.01509        0.02052
       -7.68000        0.05240        0.01698        0.02358
       -7.64000        0.07059        0.01941        0.02768
       -7.60000        0.09392        0.02270        0.03335
       -7.56000        0.11201        0.02685        0.04057
       -7.52000        0.11482        0.03145        0.04858
       -7.48000        0.09969        0.03580        0.05615
       -7.44000        0.07298        0.03927        0.06221
       -7.40000        0.04501        0.04162        0.06631
       -7.36000        0.02350        0.04296        0.06865
       -7.32000        0.01096        0.04362        0.06981
       -7.28000        0.00651        0.04394        0.07041
       -7.24000        0.00934        0.04424        0.07102
       -7.20000        0.02061        0.04480        0.07230
       -7.16000        0.04250        0.04603        0.07507
       -7.12000        0.07462        0.04834        0.08031
       -7.08000        0.11055        0.05205        0.08872
       -7.04000        0.13847        0.05708        0.10013
       -7.00000        0.14802        0.06288        0.11330
       -6.96000        0.13856        0.06866        0.12649
       -6.92000        0.12088        0.07385        0.13846
       -6.88000        0.10925        0.07842        0.14919
       -6.84000        0.11047        0.08277        0.15972
       -6.80000        0.11946        0.08736        0.17108
       -6.76000        0.12533        0.09228        0.18343
       -6.72000        0.12189        0.09726        0.19601
       -6.68000        0.11308        0.10196        0.20804
       -6.64000        0.10826        0.10636        0.21951
       -6.60000        0.11227        0.11074        0.23119
       -6.56000        0.12002        0.11539        0.24380
       -6.52000        0.12070        0.12025        0.25709
       -6.48000        0.10720        0.12486        0.26976
       -6.44000        0.08164        0.12866        0.28023
       -6.40000        0.05283        0.13134        0.28763
       -6.36000        0.02952        0.13296        0.29210
       -6.32000        0.01639        0.13384        0.29456
       -6.28000        0.01518        0.13443        0.29630
       -6.24000        0.02793        0.13524        0.29887
       -6.20000        0.05786        0.13690        0.30420
       -6.16000        0.10576        0.14012        0.31462
       -6.12000        0.16416        0.14550        0.33206
       -6.08000        0.21633        0.15317        0.35689
       -6.04000        0.24440        0.16248        0.38712
       -6.00000        0.24201        0.17230        0.41908
       -5.96000        0.21883        0.18156        0.44938
       -5.92000        0.19159        0.18976        0.47647
       -5.88000        0.17109        0.19698        0.50067
       -5.84000        0.15900        0.20356        0.52302
       -5.80000        0.15519        0.20981        0.54460
       -5.76000        0.16352        0.21614        0.56679
       -5.72000        0.18693        0.22310        0.59163
       -5.68000        0.21805        0.23120        0.62089
       -5.64000        0.23843        0.24040        0.65436
       -5.60000        0.23079        0.24989        0.68899
       -5.56000        0.19322        0.25846        0.72029
       -5.52000        0.14136        0.26516        0.74484
       -5.48000        0.09745        0.26987        0.76224
       -5.44000        0.07687        0.27327        0.77501
       -5.40000        0.08178        0.27637        0.78701
       -5.36000        0.10269        0.28003        0.80146
       -5.32000        0.12469        0.28460        0.81965
       -5.28000        0.13549        0.28985        0.84064
       -5.24000        0.13196        0.29524        0.86226
       -5.20000        0.12143        0.30031        0.88273
       -5.16000        0.11684        0.30504        0.90204
       -5.12000        0.12914        0.30989        0.92222
       -5.08000        0.16219        0.31565        0.94659
       -5.04000        0.21282        0.32310        0.97848
       -5.00000        0.27429        0.33282        1.02042
       -4.96000        0.33826        0.34508        1.07369
       -4.92000        0.39334        0.35976        1.13789
       -4.88000        0.42503        0.37623        1.21026
       -4.84000        0.42231        0.39330        1.28562
       -4.80000        0.38688        0.40957        1.35780
       -4.76000        0.33516        0.42403        1.42232
       -4.72000        0.29102        0.43649        1.47842
       -4.68000        0.27556        0.44770        1.52958
       -4.64000        0.29881        0.45906        1.58223
       -4.60000        0.35322        0.47203        1.64314
       -4.56000        0.41277        0.48739        1.71583
       -4.52000        0.44442        0.50467        1.79799
       -4.48000        0.42869        0.52230        1.88202
       -4.44000        0.37387        0.53843        1.95923
       -4.40000        0.31209        0.55211        2.02507
       -4.36000        0.28042        0.56381        2.08206
       -4.32000        0.30085        0.57525        2.13872
       -4.28000        0.37189        0.58856        2.20563
       -4.24000        0.47633        0.60545        2.29131
       -4.20000        0.59801        0.62689        2.40089
       -4.16000        0.73068        0.65343        2.53740
       -4.12000        0.86848        0.68542        2.70300
       -4.08000        0.99118        0.72272        2.89720
       -4.04000        1.06847        0.76410        3.11381
       -4.00000        1.08525        0.80737        3.34139
       -3.96000        1.05848        0.85033        3.56869
       -3.92000        1.02199        0.89193        3.79030
       -3.88000        0.99634        0.93225        4.00685
       -3.84000        0.97953        0.97175        4.22065
       -3.80000        0.96620        1.01065        4.43276
       -3.76000        0.96770        1.04924        4.64488
       -3.72000        1.00813        1.08859        4.86311
       -3.68000        1.10154        1.13061        5.09831
       -3.64000        1.23536        1.17726        5.36158
       -3.60000        1.37725        1.22954        5.65864
       -3.56000        1.49923        1.28717        5.98801
       -3.52000        1.59377        1.34911        6.34424
       -3.48000        1.66437        1.41435        6.72177
       -3.44000        1.70370        1.48185        7.11473
       -3.40000        1.68858        1.54992        7.51323
       -3.36000        1.60101        1.61596        7.90177
       -3.32000        1.45379        1.67719        8.26389
       -3.28000        1.29502        1.73210        8.59056
       -3.24000        1.18570        1.78146        8.88651
       -3.20000        1.16359        1.82814        9.16902
       -3.16000        1.21539        1.87556        9.45856
       -3.12000        1.27969        1.92555        9.76591
       -3.08000        1.28483        1.97713       10.08453
       -3.04000        1.19660        2.02706       10.39411
       -3.00000        1.03842        2.07190       10.67318
       -2.96000        0.87071        2.11001       10.91153
       -2.92000        0.75162        2.14222       11.11452
       -2.88000        0.71295        2.17122       11.29907
       -2.84000        0.76465        2.20047       11.48718
       -2.80000        0.91307        2.23368       11.70303
       -2.76000        1.16698        2.27492       11.97333
       -2.72000        1.52284        2.32841       12.32631
       -2.68000        1.94637        2.39767       12.78572
       -2.64000        2.37352        2.48418       13.36210
       -2.60000        2.73353        2.58664       14.04754
       -2.56000        2.97458        2.70126       14.81730
       -2.52000        3.07365        2.82271       15.63634
       -2.48000        3.03293        2.94528       16.46653
       -2.44000        2.87856        3.06381       17.27306
       -2.40000        2.66504        3.17476       18.03177
       -2.36000        2.46654        3.27722       18.73650
       -2.32000        2.34266        3.37311       19.40041
       -2.28000        2.30334        3.46579       20.04661
       -2.24000        2.31282        3.55802       20.69388
       -2.20000        2.33240        3.65093       21.34963
       -2.16000        2.35354        3.74463       22.01474
       -2.12000        2.38727        3.83939       22.69129
       -2.08000        2.43468        3.93580       23.38362
       -2.04000        2.48301        4.03417       24.09394
       -2.00000        2.52890        4.13440       24.82165
       -1.96000        2.59099        4.23670       25.56865
       -1.92000        2.68982        4.34218       26.34344
       -1.88000        2.81628        4.45227       27.15668
       -1.84000        2.92407        4.56724       28.01034
       -1.80000        2.95641        4.68518       28.89002
       -1.76000        2.88283        4.80232       29.76747
       -1.72000        2.71518        4.91453       30.61160
       -1.68000        2.49300        5.01881       31.39951
       -1.64000        2.25498        5.11377       32.12057
       -1.60000        2.02064        5.19926       32.77290
       -1.56000        1.79337        5.27552       33.35766
       -1.52000        1.57628        5.34286       33.87662
       -1.48000        1.38257        5.40193       34.33413
       -1.44000        1.22936        5.45401       34.73979
       -1.40000        1.12216        5.50090       35.10715
       -1.36000        1.04867        5.54424       35.44867
       -1.32000        0.99018        5.58499       35.77154
       -1.28000        0.93651        5.62351       36.07830
       -1.24000        0.88650        5.65996       36.37002
       -1.20000        0.83665        5.69444       36.64731
       -1.16000        0.77659        5.72676       36.90840
       -1.12000        0.69942        5.75633       37.14830
       -1.08000        0.61362        5.78259       37.36218
       -1.04000        0.54168        5.80561       37.55062
       -1.00000        0.50690        5.82642       37.72217
       -0.96000        0.52306        5.84684       37.89171
       -0.92000        0.59485        5.86901       38.07720
       -0.88000        0.72367        5.89519       38.29770
       -0.84000        0.90838        5.92765       38.57266
       -0.80000        1.13728        5.96846       38.91988
       -0.76000        1.37844        6.01881       39.34993
       -0.72000        1.58228        6.07823       39.85912
       -0.68000        1.70535        6.14430       40.42684
       -0.64000        1.74336        6.21350       41.02351
       -0.60000        1.74273        6.28324       41.62715
       -0.56000        1.77172        6.35333       42.23696
       -0.52000        1.87194        6.42595       42.87235
       -0.48000        2.03293        6.50391       43.55807
       -0.44000        2.21124        6.58881       44.30825
       -0.40000        2.37357        6.68058       45.12248
       -0.36000        2.52662        6.77856       45.99558
       -0.32000        2.70992        6.88312       46.93165
       -0.28000        2.95590        6.99621       47.94916
       -0.24000        3.24870        7.12024       49.07016
       -0.20000        3.52163        7.25585       50.30084
       -0.16000        3.70276        7.40072       51.62036
       -0.12000        3.76826        7.55050       52.98937
       -0.08000        3.75461        7.70111       54.37135
       -0.04000        3.72802        7.85070       55.74971
        0.00000        3.74914        8.00000       57.13192
        0.04000        3.85616        8.15179       58.54398
        0.08000        4.05383        8.30972       60.02038
        0.12000        4.29839        8.47674       61.58872
        0.16000        4.49423        8.65296       63.24984
        0.20000        4.52268        8.83404       64.96244
        0.24000        4.29660        9.01134       66.64405
        0.28000        3.81156        9.17426       68.19320
        0.32000        3.16274        9.31405       69.52572
        0.36000        2.51204        9.42726       70.60830
        0.40000        2.01599        9.51711       71.47127
        0.44000        1.75362        9.59170       72.19209
        0.48000        1.70176        9.66024       72.85886
        0.52000        1.77288        9.72948       73.53650
        0.56000        1.88088        9.80254       74.25465
        0.60000        1.97979        9.87982       75.01727
        0.64000        2.05271        9.96058       75.81718
        0.68000        2.08090       10.04344       76.64083
        0.72000        2.03746       10.12609       77.46490
        0.76000        1.91065       10.20531       78.25726
        0.80000        1.72087       10.27809       78.98736
        0.84000        1.50717       10.34267       79.63734
        0.88000        1.30144       10.39878       80.20418
        0.92000        1.11889       10.44710       80.69415
        0.96000        0.96547       10.48868       81.11754
        1.00000        0.84357       10.52476       81.48641
        1.04000        0.75021       10.55655       81.81289
        1.08000        0.67618       10.58503       82.10659
        1.12000        0.61067       10.61076       82.37290
        1.16000        0.54571       10.63389       82.61327
        1.20000        0.47678       10.65436       82.82664
        1.24000        0.40301       10.67197       83.01077
        1.28000        0.32886       10.68659       83.16417
        1.32000        0.26297       10.69839       83.28830
        1.36000        0.21166       10.70783       83.38805
        1.40000        0.17368       10.71550       83.46944
        1.44000        0.14366       10.72183       83.53683
        1.48000        0.12166       10.72709       83.59318
        1.52000        0.11876       10.73181       83.64397
        1.56000        0.15235       10.73708       83.70133
        1.60000        0.23352       10.74464       83.78414
        1.64000        0.35441       10.75631       83.91237
        1.68000        0.48536       10.77313       84.09763
        1.72000        0.58707       10.79474       84.33575
        1.76000        0.63109       10.81932       84.60692
        1.80000        0.61321       10.84439       84.88397
        1.84000        0.55154       10.86779       85.14299
        1.88000        0.47585       10.88833       85.37103
        1.92000        0.41682       10.90608       85.56889
        1.96000        0.39528       10.92218       85.74929
        2.00000        0.41128       10.93822       85.92991
        2.04000        0.44139       10.95528       86.12294
        2.08000        0.45217       10.97326       86.32692
        2.12000        0.42282       10.99090       86.52734
        2.16000        0.35904       11.00662       86.70615
        2.20000        0.28714       11.01952       86.85326
        2.24000        0.23462       11.02986       86.97162
        2.28000        0.21307       11.03871       87.07356
        2.32000        0.21445       11.04721       87.17200
        2.36000        0.22060       11.05593       87.27329
        2.40000        0.21715       11.06473       87.37581
        2.44000        0.20302       11.07315       87.47422
        2.48000        0.19010       11.08098       87.56601
        2.52000        0.19368       11.08858       87.65556
        2.56000        0.21988       11.09679       87.75272
        2.60000        0.26016       11.10637       87.86669
        2.64000        0.29837       11.11757       88.00030
        2.68000        0.32435       11.13007       88.14974
        2.72000        0.33985       11.14337       88.30926
        2.76000        0.35078       11.15720       88.47547
        2.80000        0.35544       11.17136       88.64623
        2.84000        0.34260       11.18540       88.81596
        2.88000        0.30232       11.19839       88.97329
        2.92000        0.23763       11.20925       89.10489
        2.96000        0.16569       11.21731       89.20260
        3.00000        0.10799       11.22270       89.26818
        3.04000        0.07954       11.22634       89.31266
        3.08000        0.08473       11.22952       89.35189
        3.12000        0.11978       11.23352       89.40175
        3.16000        0.17710       11.23940       89.47527
        3.20000        0.24836       11.24787       89.58152
        3.24000        0.32470       11.25933       89.72546
        3.28000        0.39461       11.27376       89.90703
        3.32000        0.44325       11.29062       90.11944
        3.36000        0.45765       11.30876       90.34850
        3.40000        0.43591       11.32674       90.57582
        3.44000        0.39183       11.34333       90.78608
        3.48000        0.34741       11.35809       90.97356
        3.52000        0.31731       11.37133       91.14243
        3.56000        0.29967       11.38364       91.30010
        3.60000        0.28406       11.39532       91.45013
        3.64000        0.26886       11.40636       91.59237
        3.68000        0.26870       11.41703       91.73035
        3.72000        0.30211       11.42831       91.87711
        3.76000        0.37035       11.44167       92.05165
        3.80000        0.44864       11.45808       92.26662
        3.84000        0.49911       11.47719       92.51731
        3.88000        0.49498       11.49727       92.78108
        3.92000        0.43558       11.51604       93.02783
        3.96000        0.34204       11.53166       93.23338
        4.00000        0.24185       11.54332       93.38699
        4.04000        0.15610       11.55120       93.49105
        4.08000        0.09568       11.55615       93.55641
        4.12000        0.06251       11.55923       93.59726
        4.16000        0.05174       11.56145       93.62700
        4.20000        0.05397       11.56354       93.65514
        4.24000        0.05847       11.56580       93.68565
        4.28000        0.05742       11.56814       93.71736
        4.32000        0.04887       11.57029       93.74643
        4.36000        0.03667       11.57200       93.76964
        4.40000        0.02749       11.57326       93.78678
        4.44000        0.02763       11.57432       93.80134
        4.48000        0.04118       11.57565       93.81970
        4.52000        0.06908       11.57781       93.84972
        4.56000        0.10873       11.58134       93.89879
        4.60000        0.15490       11.58660       93.97211
        4.64000        0.20187       11.59374       94.07180
        4.68000        0.24391       11.60268       94.19683
        4.72000        0.27328       11.61308       94.34249
        4.76000        0.28024       11.62424       94.49898
        4.80000        0.25880       11.63512       94.65165
        4.84000        0.21383       11.64463       94.78528
        4.88000        0.16092       11.65212       94.89065
        4.92000        0.11879       11.65765       94.96866
        4.96000        0.10182       11.66196       95.02980
        5.00000        0.11714       11.66623       95.09079
        5.04000        0.16329       11.67175       95.17012
        5.08000        0.22806       11.67955       95.28251
        5.12000        0.28994       11.68995       95.43274
        5.16000        0.32700       11.70240       95.61256
        5.20000        0.32864       11.71563       95.80384
        5.24000        0.30103       11.72830       95.98717
        5.28000        0.26311       11.73958       96.15077
        5.32000        0.23734       11.74951       96.29534
        5.36000        0.23965       11.75895       96.43324
        5.40000        0.27133       11.76908       96.58213
        5.44000        0.31690       11.78084       96.75535
        5.48000        0.35202       11.79429       96.95392
        5.52000        0.35811       11.80861       97.16549
        5.56000        0.33242       11.82251       97.37125
        5.60000        0.28558       11.83492       97.55513
        5.64000        0.23067       11.84525       97.70856
        5.68000        0.17567       11.85337       97.82933
        5.72000        0.12419       11.85935       97.91841
        5.76000        0.07942       11.86340       97.97871
        5.80000        0.04493       11.86585       98.01525
        5.84000        0.02259       11.86716       98.03481
        5.88000        0.01176       11.86781       98.04457
        5.92000        0.01086       11.86823       98.05095
        5.96000        0.01943       11.86880       98.05976
        6.00000        0.03778       11.86991       98.07690
        6.04000        0.06421       11.87193       98.10805
        6.08000        0.09228       11.87507       98.15648
        6.12000        0.11164       11.87920       98.22009
        6.16000        0.11362       11.88377       98.29057
        6.20000        0.09728       11.88804       98.35642
        6.24000        0.07007       11.89141       98.40832
        6.28000        0.04246       11.89364       98.44281
        6.32000        0.02164       11.89490       98.46213
        6.36000        0.00928       11.89549       98.47127
        6.40000        0.00335       11.89572       98.47491
        6.44000        0.00102       11.89580       98.47613
        6.48000        0.00026       11.89583       98.47648
        6.52000        0.00006       11.89583       98.47656
        6.56000        0.00001       11.89583       98.47658
        6.60000        0.00000       11.89583       98.47658
        6.64000        0.00002       11.89583       98.47659
        6.68000        0.00011       11.89584       98.47662
        6.72000        0.00050       11.89585       98.47680
        6.76000        0.00190       11.89589       98.47749
        6.80000        0.00605       11.89603       98.47986
        6.84000        0.01632       11.89645       98.48671
        6.88000        0.03730       11.89748       98.50352
        6.92000        0.07243       11.89963       98.53856
        6.96000        0.11995       11.90345       98.60091
        7.00000        0.17049       11.90927       98.69602
        7.04000        0.21000       11.91694       98.82137
        7.08000        0.22784       11.92577       98.96590
        7.12000        0.22400       11.93487       99.11483
        7.16000        0.20933       11.94355       99.25714
        7.20000        0.19822       11.95167       99.39065
        7.24000        0.19891       11.95957       99.52099
        7.28000        0.20869       11.96770       99.65563
        7.32000        0.21795       11.97625       99.79745
        7.36000        0.22038       11.98504       99.94352
        7.40000        0.22043       11.99385      100.09018
        7.44000        0.23080       12.00282      100.24000
        7.48000        0.26275       12.01261      100.40414
        7.52000        0.31782       12.02415      100.59833
        7.56000        0.38595       12.03821      100.83540
        7.60000        0.44776       12.05494      101.11806
        7.64000        0.48000       12.07363      101.43414
        7.68000        0.46653       12.09272      101.75735
        7.72000        0.41155       12.11039      102.05673
        7.76000        0.34309       12.12546      102.31259
        7.80000        0.29887       12.13817      102.52884
        7.84000        0.30397       12.15004      102.73194
        7.88000        0.35755       12.16314      102.95688
        7.92000        0.43653       12.17899      103.22984
        7.96000        0.51013       12.19799      103.55761
        8.00000        0.55501       12.21941      103.92768
        8.04000        0.56446       12.24191      104.31693
        8.08000        0.54779       12.26421      104.70348
        8.12000        0.52028       12.28559      105.07466
        8.16000        0.49123       12.30582      105.42672
        8.20000        0.46111       12.32488      105.75906
        8.24000        0.42831       12.34267      106.07012
        8.28000        0.39610       12.35915      106.35872
        8.32000        0.37299       12.37448      106.62802
        8.36000        0.36909       12.38924      106.88804
        8.40000        0.39172       12.40437      107.15526
        8.44000        0.43976       12.42093      107.44877
        8.48000        0.49844       12.43969      107.78221
        8.52000        0.54094       12.46059      108.15398
        8.56000        0.54036       12.48239      108.54240
        8.60000        0.48534       12.50308      108.91132
        8.64000        0.38801       12.52064      109.22475
        8.68000        0.27889       12.53396      109.46259
        8.72000        0.19314       12.54327      109.62914
        8.76000        0.15769       12.55009      109.75167
        8.80000        0.18382       12.55671      109.87154
        8.84000        0.26406       12.56552      110.03173
        8.88000        0.37247       12.57822      110.26299
        8.92000        0.47201       12.59520      110.57260
        8.96000        0.52956       12.61541      110.94130
        9.00000        0.52964       12.63679      111.33159
        9.04000        0.47693       12.65707      111.70220
        9.08000        0.38889       12.67447      112.02040
        9.12000        0.28775       12.68801      112.26822
        9.16000        0.19657       12.69762      112.44446
        9.20000        0.13644       12.70415      112.56434
        9.24000        0.12329       12.70917      112.65705
        9.28000        0.16509       12.71475      112.76090
        9.32000        0.25888       12.72308      112.91643
        9.36000        0.38775       12.73594      113.15704
        9.40000        0.52151       12.75416      113.49836
        9.44000        0.62592       12.77726      113.93117
        9.48000        0.67723       12.80352      114.42365
        9.52000        0.67212       12.83068      114.93354
        9.56000        0.62581       12.85674      115.42343
        9.60000        0.56059       12.88049      115.87079
        9.64000        0.49334       12.90156      116.26828
        9.68000        0.43028       12.92002      116.61721
        9.72000        0.37112       12.93604      116.92058
        9.76000        0.31707       12.94978      117.18134
        9.80000        0.27454       12.96155      117.40541
        9.84000        0.25147       12.97200      117.60466
        9.88000        0.25136       12.98198      117.79567
        9.92000        0.27098       12.99237      117.99514
        9.96000        0.30232       13.00382      118.21534
       10.00000        0.33435       13.01657      118.46120
